 ,Area,Angle,Length
1,1.801E-4,90,0.130
2,2.421E-4,90,0.175
3,3.040E-4,90,0.221
4,3.697E-4,90,0.268
5,4.297E-4,90,0.312
6,4.935E-4,90,0.359
7,5.386E-4,90,0.392
8,5.949E-4,90,0.433
9,6.399E-4,90,0.466
10,6.906E-4,90,0.503
11,7.394E-4,90,0.538
12,7.825E-4,90,0.570
13,8.313E-4,90,0.605
14,8.726E-4,90,0.636
15,9.176E-4,90,0.668
16,9.702E-4,90,0.707
